10.00010 51.000
10.02053 57.000
10.04096 39.000
10.06139 44.000
10.08182 53.000
10.10225 56.000
10.12268 48.000
10.14311 44.000
10.16354 56.000
10.18396 46.000
10.20439 61.000
10.22482 61.000
10.24525 46.000
10.26568 53.000
10.28611 54.000
10.30654 45.000
10.32697 49.000
10.34740 41.000
10.36783 49.000
10.38826 48.000
10.40869 55.000
10.42912 65.000
10.44955 42.000
10.46998 46.000
10.49041 53.000
10.51084 70.000
10.53127 49.000
10.55169 37.000
10.57212 55.000
10.59255 56.000
10.61298 43.000
10.63341 66.000
10.65384 52.000
10.67427 57.000
10.69470 49.000
10.71513 46.000
10.73556 50.000
10.75599 46.000
10.77642 54.000
10.79685 63.000
10.81728 61.000
10.83771 43.000
10.85814 50.000
10.87857 55.000
10.89899 38.000
10.91942 58.000
10.93985 38.000
10.96028 57.000
10.98071 60.000
11.00114 51.000
11.02157 42.000
11.04200 46.000
11.06243 58.000
11.08286 56.000
11.10329 45.000
11.12372 53.000
11.14415 64.000
11.16458 43.000
11.18501 58.000
11.20544 43.000
11.22587 56.000
11.24629 44.000
11.26672 44.000
11.28715 46.000
11.30758 56.000
11.32801 59.000
11.34844 53.000
11.36887 38.000
11.38930 48.000
11.40973 54.000
11.43016 45.000
11.45059 44.000
11.47102 60.000
11.49145 56.000
11.51188 52.000
11.53231 62.000
11.55274 41.000
11.57317 50.000
11.59360 49.000
11.61402 58.000
11.63445 51.000
11.65488 55.000
11.67531 59.000
11.69574 43.000
11.71617 47.000
11.73660 56.000
11.75703 49.000
11.77746 57.000
11.79789 66.000
11.81832 55.000
11.83875 74.000
11.85918 52.000
11.87961 47.000
11.90004 48.000
11.92047 56.000
11.94090 61.000
11.96132 51.000
11.98175 56.000
12.00218 53.000
12.02261 59.000
12.04304 54.000
12.06347 50.000
12.08390 49.000
12.10433 55.000
12.12476 57.000
12.14519 63.000
12.16562 48.000
12.18605 50.000
12.20648 61.000
12.22691 49.000
12.24734 52.000
12.26777 71.000
12.28820 49.000
12.30862 53.000
12.32905 64.000
12.34948 53.000
12.36991 53.000
12.39034 50.000
12.41077 48.000
12.43120 55.000
12.45163 53.000
12.47206 66.000
12.49249 61.000
12.51292 57.000
12.53335 62.000
12.55378 53.000
12.57421 56.000
12.59464 50.000
12.61507 50.000
12.63550 65.000
12.65593 50.000
12.67635 52.000
12.69678 64.000
12.71721 57.000
12.73764 61.000
12.75807 59.000
12.77850 60.000
12.79893 54.000
12.81936 66.000
12.83979 66.000
12.86022 51.000
12.88065 56.000
12.90108 65.000
12.92151 52.000
12.94194 60.000
12.96237 55.000
12.98280 45.000
13.00323 59.000
13.02365 47.000
13.04408 51.000
13.06451 41.000
13.08494 47.000
13.10537 53.000
13.12580 46.000
13.14623 54.000
13.16666 49.000
13.18709 57.000
13.20752 67.000
13.22795 59.000
13.24838 48.000
13.26881 42.000
13.28924 53.000
13.30967 53.000
13.33010 60.000
13.35053 42.000
13.37095 51.000
13.39138 66.000
13.41181 74.000
13.43224 60.000
13.45267 46.000
13.47310 59.000
13.49353 61.000
13.51396 55.000
13.53439 50.000
13.55482 73.000
13.57525 59.000
13.59568 67.000
13.61611 55.000
13.63654 56.000
13.65697 65.000
13.67740 67.000
13.69783 70.000
13.71826 52.000
13.73868 50.000
13.75911 57.000
13.77954 54.000
13.79997 71.000
13.82040 74.000
13.84083 61.000
13.86126 67.000
13.88169 68.000
13.90212 54.000
13.92255 56.000
13.94298 52.000
13.96341 57.000
13.98384 58.000
14.00427 47.000
14.02470 56.000
14.04513 42.000
14.06556 67.000
14.08598 53.000
14.10641 60.000
14.12684 69.000
14.14727 71.000
14.16770 61.000
14.18813 63.000
14.20856 61.000
14.22899 60.000
14.24942 72.000
14.26985 66.000
14.29028 67.000
14.31071 54.000
14.33114 59.000
14.35157 67.000
14.37200 51.000
14.39243 59.000
14.41286 54.000
14.43328 65.000
14.45371 56.000
14.47414 61.000
14.49457 59.000
14.51500 71.000
14.53543 61.000
14.55586 53.000
14.57629 56.000
14.59672 64.000
14.61715 55.000
14.63758 58.000
14.65801 59.000
14.67844 62.000
14.69887 51.000
14.71930 57.000
14.73973 80.000
14.76016 54.000
14.78059 69.000
14.80101 58.000
14.82144 56.000
14.84187 59.000
14.86230 60.000
14.88273 68.000
14.90316 51.000
14.92359 44.000
14.94402 58.000
14.96445 64.000
14.98488 51.000
15.00531 56.000
15.02574 65.000
15.04617 71.000
15.06660 57.000
15.08703 72.000
15.10746 77.000
15.12789 55.000
15.14831 62.000
15.16874 58.000
15.18917 51.000
15.20960 60.000
15.23003 56.000
15.25046 63.000
15.27089 66.000
15.29132 45.000
15.31175 43.000
15.33218 45.000
15.35261 53.000
15.37304 63.000
15.39347 52.000
15.41390 56.000
15.43433 55.000
15.45476 67.000
15.47519 63.000
15.49561 60.000
15.51604 70.000
15.53647 57.000
15.55690 62.000
15.57733 43.000
15.59776 47.000
15.61819 46.000
15.63862 46.000
15.65905 48.000
15.67948 66.000
15.69991 55.000
15.72034 58.000
15.74077 54.000
15.76120 59.000
15.78163 59.000
15.80206 58.000
15.82249 64.000
15.84292 52.000
15.86334 53.000
15.88377 64.000
15.90420 54.000
15.92463 66.000
15.94506 58.000
15.96549 48.000
15.98592 60.000
16.00635 59.000
16.02678 60.000
16.04721 50.000
16.06764 51.000
16.08807 67.000
16.10850 55.000
16.12893 48.000
16.14936 73.000
16.16979 65.000
16.19022 55.000
16.21064 52.000
16.23107 52.000
16.25150 64.000
16.27193 71.000
16.29236 51.000
16.31279 45.000
16.33322 67.000
16.35365 65.000
16.37408 64.000
16.39451 46.000
16.41494 59.000
16.43537 57.000
16.45580 65.000
16.47623 48.000
16.49666 57.000
16.51709 54.000
16.53752 58.000
16.55795 60.000
16.57837 73.000
16.59880 61.000
16.61923 67.000
16.63966 51.000
16.66009 51.000
16.68052 57.000
16.70095 53.000
16.72138 55.000
16.74181 52.000
16.76224 41.000
16.78267 42.000
16.80310 48.000
16.82353 47.000
16.84396 46.000
16.86439 45.000
16.88482 52.000
16.90525 57.000
16.92567 54.000
16.94610 66.000
16.96653 57.000
16.98696 46.000
17.00739 46.000
17.02782 59.000
17.04825 51.000
17.06868 60.000
17.08911 59.000
17.10954 51.000
17.12997 75.000
17.15040 45.000
17.17083 49.000
17.19126 47.000
17.21169 65.000
17.23212 56.000
17.25255 51.000
17.27297 52.000
17.29340 53.000
17.31383 41.000
17.33426 49.000
17.35469 47.000
17.37512 51.000
17.39555 44.000
17.41598 63.000
17.43641 46.000
17.45684 46.000
17.47727 65.000
17.49770 48.000
17.51813 48.000
17.53856 66.000
17.55899 45.000
17.57942 48.000
17.59985 50.000
17.62028 48.000
17.64070 55.000
17.66113 43.000
17.68156 59.000
17.70199 44.000
17.72242 63.000
17.74285 48.000
17.76328 55.000
17.78371 67.000
17.80414 51.000
17.82457 47.000
17.84500 52.000
17.86543 45.000
17.88586 53.000
17.90629 63.000
17.92672 62.000
17.94715 45.000
17.96758 46.000
17.98800 56.000
18.00843 54.000
18.02886 48.000
18.04929 59.000
18.06972 51.000
18.09015 51.000
18.11058 50.000
18.13101 48.000
18.15144 49.000
18.17187 49.000
18.19230 54.000
18.21273 43.000
18.23316 49.000
18.25359 45.000
18.27402 44.000
18.29445 50.000
18.31488 57.000
18.33530 51.000
18.35573 44.000
18.37616 43.000
18.39659 55.000
18.41702 41.000
18.43745 43.000
18.45788 49.000
18.47831 48.000
18.49874 44.000
18.51917 47.000
18.53960 52.000
18.56003 48.000
18.58046 48.000
18.60089 49.000
18.62132 55.000
18.64175 42.000
18.66218 40.000
18.68261 53.000
18.70303 43.000
18.72346 49.000
18.74389 44.000
18.76432 51.000
18.78475 47.000
18.80518 44.000
18.82561 46.000
18.84604 49.000
18.86647 52.000
18.88690 45.000
18.90733 43.000
18.92776 45.000
18.94819 46.000
18.96862 60.000
18.98905 42.000
19.00948 56.000
19.02991 38.000
19.05033 46.000
19.07076 49.000
19.09119 41.000
19.11162 49.000
19.13205 60.000
19.15248 53.000
19.17291 47.000
19.19334 44.000
19.21377 49.000
19.23420 52.000
19.25463 45.000
19.27506 53.000
19.29549 52.000
19.31592 54.000
19.33635 62.000
19.35678 51.000
19.37721 47.000
19.39763 48.000
19.41806 43.000
19.43849 55.000
19.45892 55.000
19.47935 44.000
19.49978 61.000
19.52021 49.000
19.54064 57.000
19.56107 42.000
19.58150 58.000
19.60193 44.000
19.62236 46.000
19.64279 45.000
19.66322 42.000
19.68365 43.000
19.70408 40.000
19.72451 42.000
19.74494 42.000
19.76536 43.000
19.78579 48.000
19.80622 57.000
19.82665 49.000
19.84708 46.000
19.86751 49.000
19.88794 42.000
19.90837 42.000
19.92880 32.000
19.94923 45.000
19.96966 51.000
19.99009 50.000
20.01052 56.000
20.03095 45.000
20.05138 48.000
20.07181 41.000
20.09224 45.000
20.11266 36.000
20.13309 46.000
20.15352 45.000
20.17395 50.000
20.19438 53.000
20.21481 52.000
20.23524 47.000
20.25567 55.000
20.27610 44.000
20.29653 53.000
20.31696 52.000
20.33739 36.000
20.35782 40.000
20.37825 51.000
20.39868 57.000
20.41911 44.000
20.43954 51.000
20.45996 43.000
20.48039 49.000
20.50082 52.000
20.52125 60.000
20.54168 56.000
20.56211 44.000
20.58254 55.000
20.60297 37.000
20.62340 45.000
20.64383 54.000
20.66426 50.000
20.68469 50.000
20.70512 43.000
20.72555 51.000
20.74598 50.000
20.76641 43.000
20.78684 48.000
20.80727 47.000
20.82769 41.000
20.84812 49.000
20.86855 57.000
20.88898 41.000
20.90941 57.000
20.92984 34.000
20.95027 46.000
20.97070 39.000
20.99113 46.000
21.01156 45.000
21.03199 38.000
21.05242 44.000
21.07285 48.000
21.09328 39.000
21.11371 34.000
21.13414 57.000
21.15457 49.000
21.17499 53.000
21.19542 45.000
21.21585 35.000
21.23628 48.000
21.25671 60.000
21.27714 51.000
21.29757 49.000
21.31800 46.000
21.33843 44.000
21.35886 50.000
21.37929 65.000
21.39972 49.000
21.42015 43.000
21.44058 50.000
21.46101 57.000
21.48144 52.000
21.50187 67.000
21.52230 51.000
21.54272 54.000
21.56315 57.000
21.58358 60.000
21.60401 54.000
21.62444 38.000
21.64487 71.000
21.66530 63.000
21.68573 62.000
21.70616 60.000
21.72659 72.000
21.74702 73.000
21.76745 54.000
21.78788 66.000
21.80831 79.000
21.82874 81.000
21.84917 85.000
21.86960 101.000
21.89002 81.000
21.91045 102.000
21.93088 117.000
21.95131 138.000
21.97174 182.000
21.99217 228.000
22.01260 253.000
22.03303 298.000
22.05346 328.000
22.07389 348.000
22.09432 373.000
22.11475 430.000
22.13518 409.000
22.15561 461.000
22.17604 540.000
22.19647 489.000
22.21690 488.000
22.23732 449.000
22.25775 390.000
22.27818 333.000
22.29861 266.000
22.31904 173.000
22.33947 145.000
22.35990 125.000
22.38033 99.000
22.40076 103.000
22.42119 85.000
22.44162 64.000
22.46205 73.000
22.48248 62.000
22.50291 59.000
22.52334 63.000
22.54377 50.000
22.56420 51.000
22.58463 50.000
22.60505 52.000
22.62548 55.000
22.64591 48.000
22.66634 49.000
22.68677 36.000
22.70720 59.000
22.72763 51.000
22.74806 41.000
22.76849 39.000
22.78892 48.000
22.80935 44.000
22.82978 50.000
22.85021 49.000
22.87064 44.000
22.89107 57.000
22.91150 39.000
22.93193 48.000
22.95235 51.000
22.97278 47.000
22.99321 49.000
23.01364 46.000
23.03407 44.000
23.05450 40.000
23.07493 43.000
23.09536 51.000
23.11579 45.000
23.13622 38.000
23.15665 40.000
23.17708 43.000
23.19751 52.000
23.21794 36.000
23.23837 55.000
23.25880 52.000
23.27923 40.000
23.29965 48.000
23.32008 39.000
23.34051 43.000
23.36094 42.000
23.38137 46.000
23.40180 46.000
23.42223 46.000
23.44266 42.000
23.46309 45.000
23.48352 45.000
23.50395 45.000
23.52438 55.000
23.54481 39.000
23.56524 34.000
23.58567 50.000
23.60610 47.000
23.62653 34.000
23.64696 48.000
23.66738 56.000
23.68781 43.000
23.70824 56.000
23.72867 46.000
23.74910 54.000
23.76953 66.000
23.78996 49.000
23.81039 47.000
23.83082 54.000
23.85125 53.000
23.87168 62.000
23.89211 54.000
23.91254 52.000
23.93297 65.000
23.95340 71.000
23.97383 57.000
23.99426 42.000
24.01468 51.000
24.03511 63.000
24.05554 52.000
24.07597 63.000
24.09640 51.000
24.11683 50.000
24.13726 52.000
24.15769 46.000
24.17812 53.000
24.19855 40.000
24.21898 39.000
24.23941 51.000
24.25984 48.000
24.28027 50.000
24.30070 42.000
24.32113 47.000
24.34156 37.000
24.36198 47.000
24.38241 45.000
24.40284 48.000
24.42327 34.000
24.44370 36.000
24.46413 34.000
24.48456 39.000
24.50499 41.000
24.52542 35.000
24.54585 34.000
24.56628 43.000
24.58671 48.000
24.60714 39.000
24.62757 40.000
24.64800 43.000
24.66843 38.000
24.68886 63.000
24.70929 35.000
24.72971 41.000
24.75014 35.000
24.77057 43.000
24.79100 45.000
24.81143 33.000
24.83186 41.000
24.85229 51.000
24.87272 47.000
24.89315 35.000
24.91358 33.000
24.93401 30.000
24.95444 37.000
24.97487 45.000
24.99530 38.000
25.01573 33.000
25.03616 39.000
25.05659 37.000
25.07701 48.000
25.09744 47.000
25.11787 43.000
25.13830 41.000
25.15873 42.000
25.17916 38.000
25.19959 28.000
25.22002 51.000
25.24045 47.000
25.26088 39.000
25.28131 37.000
25.30174 44.000
25.32217 42.000
25.34260 29.000
25.36303 38.000
25.38346 26.000
25.40389 37.000
25.42431 39.000
25.44474 35.000
25.46517 47.000
25.48560 38.000
25.50603 31.000
25.52646 43.000
25.54689 30.000
25.56732 45.000
25.58775 41.000
25.60818 32.000
25.62861 37.000
25.64904 36.000
25.66947 49.000
25.68990 33.000
25.71033 24.000
25.73076 31.000
25.75119 51.000
25.77162 37.000
25.79204 40.000
25.81247 30.000
25.83290 34.000
25.85333 39.000
25.87376 28.000
25.89419 39.000
25.91462 46.000
25.93505 44.000
25.95548 37.000
25.97591 41.000
25.99634 35.000
26.01677 41.000
26.03720 49.000
26.05763 45.000
26.07806 37.000
26.09849 42.000
26.11892 40.000
26.13934 32.000
26.15977 41.000
26.18020 37.000
26.20063 43.000
26.22106 34.000
26.24149 37.000
26.26192 48.000
26.28235 44.000
26.30278 29.000
26.32321 35.000
26.34364 31.000
26.36407 54.000
26.38450 37.000
26.40493 34.000
26.42536 49.000
26.44579 46.000
26.46622 31.000
26.48664 37.000
26.50707 27.000
26.52750 34.000
26.54793 39.000
26.56836 33.000
26.58879 39.000
26.60922 35.000
26.62965 23.000
26.65008 43.000
26.67051 45.000
26.69094 40.000
26.71137 43.000
26.73180 51.000
26.75223 42.000
26.77266 38.000
26.79309 35.000
26.81352 32.000
26.83395 41.000
26.85437 25.000
26.87480 39.000
26.89523 36.000
26.91566 38.000
26.93609 28.000
26.95652 37.000
26.97695 44.000
26.99738 40.000
27.01781 32.000
27.03824 40.000
27.05867 36.000
27.07910 43.000
27.09953 24.000
27.11996 44.000
27.14039 31.000
27.16082 33.000
27.18125 34.000
27.20167 28.000
27.22210 47.000
27.24253 31.000
27.26296 37.000
27.28339 31.000
27.30382 34.000
27.32425 38.000
27.34468 36.000
27.36511 35.000
27.38554 40.000
27.40597 47.000
27.42640 35.000
27.44683 25.000
27.46726 37.000
27.48769 29.000
27.50812 40.000
27.52855 40.000
27.54898 55.000
27.56940 35.000
27.58983 33.000
27.61026 39.000
27.63069 43.000
27.65112 41.000
27.67155 40.000
27.69198 39.000
27.71241 41.000
27.73284 57.000
27.75327 32.000
27.77370 32.000
27.79413 36.000
27.81456 45.000
27.83499 42.000
27.85542 53.000
27.87585 39.000
27.89628 42.000
27.91670 41.000
27.93713 44.000
27.95756 30.000
27.97799 41.000
27.99842 30.000
28.01885 34.000
28.03928 25.000
28.05971 32.000
28.08014 45.000
28.10057 32.000
28.12100 28.000
28.14143 35.000
28.16186 43.000
28.18229 31.000
28.20272 37.000
28.22315 37.000
28.24358 39.000
28.26400 27.000
28.28443 35.000
28.30486 50.000
28.32529 36.000
28.34572 34.000
28.36615 39.000
28.38658 35.000
28.40701 39.000
28.42744 42.000
28.44787 43.000
28.46830 42.000
28.48873 40.000
28.50916 30.000
28.52959 34.000
28.55002 24.000
28.57045 39.000
28.59088 30.000
28.61131 34.000
28.63173 38.000
28.65216 40.000
28.67259 38.000
28.69302 37.000
28.71345 35.000
28.73388 46.000
28.75431 39.000
28.77474 46.000
28.79517 30.000
28.81560 40.000
28.83603 45.000
28.85646 31.000
28.87689 30.000
28.89732 36.000
28.91775 48.000
28.93818 42.000
28.95861 34.000
28.97903 42.000
28.99946 32.000
29.01989 39.000
29.04032 25.000
29.06075 44.000
29.08118 38.000
29.10161 53.000
29.12204 39.000
29.14247 40.000
29.16290 42.000
29.18333 29.000
29.20376 36.000
29.22419 38.000
29.24462 32.000
29.26505 45.000
29.28548 52.000
29.30591 39.000
29.32633 39.000
29.34676 29.000
29.36719 38.000
29.38762 39.000
29.40805 41.000
29.42848 49.000
29.44891 45.000
29.46934 36.000
29.48977 48.000
29.51020 34.000
29.53063 42.000
29.55106 31.000
29.57149 61.000
29.59192 40.000
29.61235 38.000
29.63278 42.000
29.65321 41.000
29.67364 51.000
29.69406 36.000
29.71449 46.000
29.73492 35.000
29.75535 32.000
29.77578 33.000
29.79621 26.000
29.81664 30.000
29.83707 36.000
29.85750 38.000
29.87793 50.000
29.89836 42.000
29.91879 36.000
29.93922 27.000
29.95965 35.000
29.98008 23.000
30.00051 45.000
30.02094 40.000
30.04136 42.000
30.06179 38.000
30.08222 39.000
30.10265 39.000
30.12308 41.000
30.14351 35.000
30.16394 37.000
30.18437 45.000
30.20480 41.000
30.22523 37.000
30.24566 57.000
30.26609 42.000
30.28652 44.000
30.30695 50.000
30.32738 59.000
30.34781 50.000
30.36824 50.000
30.38866 40.000
30.40909 67.000
30.42952 55.000
30.44995 43.000
30.47038 57.000
30.49081 45.000
30.51124 62.000
30.53167 72.000
30.55210 49.000
30.57253 54.000
30.59296 54.000
30.61339 57.000
30.63382 53.000
30.65425 65.000
30.67468 62.000
30.69511 67.000
30.71554 71.000
30.73597 56.000
30.75639 78.000
30.77682 53.000
30.79725 80.000
30.81768 68.000
30.83811 64.000
30.85854 65.000
30.87897 74.000
30.89940 80.000
30.91983 88.000
30.94026 84.000
30.96069 73.000
30.98112 83.000
31.00155 67.000
31.02198 77.000
31.04241 91.000
31.06284 100.000
31.08327 104.000
31.10369 100.000
31.12412 109.000
31.14455 129.000
31.16498 129.000
31.18541 119.000
31.20584 172.000
31.22627 185.000
31.24670 188.000
31.26713 255.000
31.28756 301.000
31.30799 312.000
31.32842 418.000
31.34885 449.000
31.36928 605.000
31.38971 794.000
31.41014 1001.000
31.43057 1408.000
31.45099 1766.000
31.47142 2391.000
31.49185 2509.000
31.51228 2559.000
31.53271 2639.000
31.55314 2700.000
31.57357 2548.000
31.59400 2336.000
31.61443 2045.000
31.63486 1713.000
31.65529 1443.000
31.67572 1144.000
31.69615 923.000
31.71658 806.000
31.73701 584.000
31.75744 472.000
31.77787 373.000
31.79830 297.000
31.81872 235.000
31.83915 199.000
31.85958 168.000
31.88001 175.000
31.90044 128.000
31.92087 122.000
31.94130 112.000
31.96173 100.000
31.98216 86.000
32.00259 81.000
32.02302 83.000
32.04345 85.000
32.06388 76.000
32.08431 71.000
32.10474 60.000
32.12517 85.000
32.14560 76.000
32.16602 67.000
32.18645 61.000
32.20688 58.000
32.22731 60.000
32.24774 69.000
32.26817 44.000
32.28860 46.000
32.30903 45.000
32.32946 56.000
32.34989 54.000
32.37032 52.000
32.39075 59.000
32.41118 61.000
32.43161 64.000
32.45204 46.000
32.47247 51.000
32.49290 66.000
32.51333 57.000
32.53375 52.000
32.55418 41.000
32.57461 59.000
32.59504 39.000
32.61547 44.000
32.63590 31.000
32.65633 30.000
32.67676 35.000
32.69719 40.000
32.71762 38.000
32.73805 32.000
32.75848 43.000
32.77891 43.000
32.79934 43.000
32.81977 51.000
32.84020 55.000
32.86063 34.000
32.88105 32.000
32.90148 42.000
32.92191 35.000
32.94234 36.000
32.96277 43.000
32.98320 39.000
33.00363 40.000
33.02406 31.000
33.04449 32.000
33.06492 37.000
33.08535 36.000
33.10578 46.000
33.12621 40.000
33.14664 36.000
33.16707 47.000
33.18750 41.000
33.20793 40.000
33.22835 43.000
33.24878 43.000
33.26921 37.000
33.28964 36.000
33.31007 33.000
33.33050 30.000
33.35093 41.000
33.37136 33.000
33.39179 40.000
33.41222 37.000
33.43265 31.000
33.45308 40.000
33.47351 36.000
33.49394 32.000
33.51437 46.000
33.53480 31.000
33.55523 38.000
33.57566 43.000
33.59608 33.000
33.61651 46.000
33.63694 39.000
33.65737 39.000
33.67780 34.000
33.69823 42.000
33.71866 34.000
33.73909 36.000
33.75952 33.000
33.77995 32.000
33.80038 29.000
33.82081 33.000
33.84124 43.000
33.86167 48.000
33.88210 41.000
33.90253 25.000
33.92296 33.000
33.94338 40.000
33.96381 30.000
33.98424 39.000
34.00467 44.000
34.02510 21.000
34.04553 38.000
34.06596 46.000
34.08639 44.000
34.10682 44.000
34.12725 34.000
34.14768 40.000
34.16811 38.000
34.18854 30.000
34.20897 40.000
34.22940 44.000
34.24983 43.000
34.27026 32.000
34.29068 46.000
34.31111 32.000
34.33154 46.000
34.35197 27.000
34.37240 44.000
34.39283 37.000
34.41326 36.000
34.43369 25.000
34.45412 37.000
34.47455 33.000
34.49498 35.000
34.51541 37.000
34.53584 41.000
34.55627 48.000
34.57670 29.000
34.59713 26.000
34.61756 35.000
34.63799 40.000
34.65841 41.000
34.67884 37.000
34.69927 20.000
34.71970 26.000
34.74013 24.000
34.76056 44.000
34.78099 40.000
34.80142 31.000
34.82185 37.000
34.84228 27.000
34.86271 31.000
34.88314 30.000
34.90357 41.000
34.92400 28.000
34.94443 27.000
34.96486 28.000
34.98529 36.000
35.00571 39.000
35.02614 28.000
35.04657 35.000
35.06700 29.000
35.08743 27.000
35.10786 32.000
35.12829 32.000
35.14872 26.000
35.16915 29.000
35.18958 30.000
35.21001 28.000
35.23044 33.000
35.25087 31.000
35.27130 39.000
35.29173 25.000
35.31216 26.000
35.33259 30.000
35.35301 33.000
35.37344 29.000
35.39387 25.000
35.41430 39.000
35.43473 35.000
35.45516 34.000
35.47559 35.000
35.49602 35.000
35.51645 26.000
35.53688 23.000
35.55731 31.000
35.57774 38.000
35.59817 29.000
35.61860 27.000
35.63903 33.000
35.65946 27.000
35.67989 26.000
35.70032 31.000
35.72074 27.000
35.74117 34.000
35.76160 34.000
35.78203 29.000
35.80246 29.000
35.82289 35.000
35.84332 23.000
35.86375 31.000
35.88418 19.000
35.90461 25.000
35.92504 26.000
35.94547 22.000
35.96590 31.000
35.98633 36.000
36.00676 34.000
36.02719 32.000
36.04762 32.000
36.06804 31.000
36.08847 34.000
36.10890 30.000
36.12933 26.000
36.14976 30.000
36.17019 35.000
36.19062 25.000
36.21105 25.000
36.23148 37.000
36.25191 33.000
36.27234 35.000
36.29277 31.000
36.31320 33.000
36.33363 21.000
36.35406 33.000
36.37449 25.000
36.39492 32.000
36.41534 34.000
36.43577 35.000
36.45620 29.000
36.47663 30.000
36.49706 21.000
36.51749 28.000
36.53792 34.000
36.55835 37.000
36.57878 30.000
36.59921 29.000
36.61964 25.000
36.64007 21.000
36.66050 40.000
36.68093 26.000
36.70136 25.000
36.72179 29.000
36.74222 26.000
36.76265 41.000
36.78307 33.000
36.80350 26.000
36.82393 28.000
36.84436 32.000
36.86479 27.000
36.88522 28.000
36.90565 29.000
36.92608 31.000
36.94651 31.000
36.96694 33.000
36.98737 33.000
37.00780 32.000
37.02823 34.000
37.04866 29.000
37.06909 21.000
37.08952 29.000
37.10995 25.000
37.13037 40.000
37.15080 22.000
37.17123 27.000
37.19166 33.000
37.21209 34.000
37.23252 31.000
37.25295 31.000
37.27338 26.000
37.29381 37.000
37.31424 26.000
37.33467 38.000
37.35510 17.000
37.37553 25.000
37.39596 32.000
37.41639 34.000
37.43682 28.000
37.45725 26.000
37.47767 26.000
37.49810 31.000
37.51853 34.000
37.53896 50.000
37.55939 40.000
37.57982 38.000
37.60025 32.000
37.62068 28.000
37.64111 38.000
37.66154 28.000
37.68197 32.000
37.70240 36.000
37.72283 35.000
37.74326 33.000
37.76369 35.000
37.78412 26.000
37.80455 36.000
37.82498 28.000
37.84540 29.000
37.86583 31.000
37.88626 22.000
37.90669 36.000
37.92712 32.000
37.94755 38.000
37.96798 22.000
37.98841 25.000
38.00884 35.000
38.02927 28.000
38.04970 40.000
38.07013 43.000
38.09056 46.000
38.11099 34.000
38.13142 30.000
38.15185 40.000
38.17228 34.000
38.19270 32.000
38.21313 29.000
38.23356 40.000
38.25399 32.000
38.27442 40.000
38.29485 40.000
38.31528 35.000
38.33571 35.000
38.35614 41.000
38.37657 40.000
38.39700 43.000
38.41743 38.000
38.43786 52.000
38.45829 57.000
38.47872 47.000
38.49915 67.000
38.51958 55.000
38.54001 48.000
38.56043 64.000
38.58086 68.000
38.60129 68.000
38.62172 85.000
38.64215 65.000
38.66258 90.000
38.68301 121.000
38.70344 120.000
38.72387 169.000
38.74430 170.000
38.76473 227.000
38.78516 286.000
38.80559 392.000
38.82602 606.000
38.84645 733.000
38.86688 854.000
38.88731 849.000
38.90773 792.000
38.92816 687.000
38.94859 596.000
38.96902 598.000
38.98945 555.000
39.00988 390.000
39.03031 290.000
39.05074 246.000
39.07117 157.000
39.09160 141.000
39.11203 104.000
39.13246 66.000
39.15289 87.000
39.17332 75.000
39.19375 62.000
39.21418 64.000
39.23461 48.000
39.25503 52.000
39.27546 48.000
39.29589 40.000
39.31632 43.000
39.33675 44.000
39.35718 33.000
39.37761 28.000
39.39804 34.000
39.41847 34.000
39.43890 27.000
39.45933 35.000
39.47976 35.000
39.50019 29.000
39.52062 27.000
39.54105 30.000
39.56148 37.000
39.58191 28.000
39.60234 35.000
39.62276 21.000
39.64319 32.000
39.66362 30.000
39.68405 46.000
39.70448 30.000
39.72491 19.000
39.74534 25.000
39.76577 28.000
39.78620 21.000
39.80663 35.000
39.82706 30.000
39.84749 22.000
39.86792 28.000
39.88835 30.000
39.90878 40.000
39.92921 31.000
39.94964 37.000
39.97006 34.000
39.99049 37.000
40.01092 24.000
40.03135 28.000
40.05178 35.000
40.07221 22.000
40.09264 21.000
40.11307 33.000
40.13350 35.000
40.15393 29.000
40.17436 20.000
40.19479 25.000
40.21522 21.000
40.23565 24.000
40.25608 28.000
40.27651 16.000
40.29694 25.000
40.31736 30.000
40.33779 20.000
40.35822 23.000
40.37865 27.000
40.39908 31.000
40.41951 39.000
40.43994 24.000
40.46037 40.000
40.48080 27.000
40.50123 14.000
40.52166 25.000
40.54209 28.000
40.56252 20.000
40.58295 30.000
40.60338 32.000
40.62381 30.000
40.64424 30.000
40.66467 22.000
40.68509 27.000
40.70552 21.000
40.72595 28.000
40.74638 26.000
40.76681 25.000
40.78724 31.000
40.80767 27.000
40.82810 26.000
40.84853 18.000
40.86896 22.000
40.88939 33.000
40.90982 28.000
40.93025 29.000
40.95068 27.000
40.97111 31.000
40.99154 29.000
41.01197 27.000
41.03239 26.000
41.05282 26.000
41.07325 17.000
41.09368 22.000
41.11411 18.000
41.13454 31.000
41.15497 29.000
41.17540 28.000
41.19583 29.000
41.21626 39.000
41.23669 37.000
41.25712 20.000
41.27755 38.000
41.29798 24.000
41.31841 23.000
41.33884 23.000
41.35927 28.000
41.37969 33.000
41.40012 25.000
41.42055 26.000
41.44098 30.000
41.46141 21.000
41.48184 34.000
41.50227 20.000
41.52270 23.000
41.54313 21.000
41.56356 23.000
41.58399 26.000
41.60442 15.000
41.62485 23.000
41.64528 34.000
41.66571 30.000
41.68614 23.000
41.70657 29.000
41.72700 33.000
41.74742 28.000
41.76785 26.000
41.78828 26.000
41.80871 38.000
41.82914 30.000
41.84957 20.000
41.87000 40.000
41.89043 24.000
41.91086 20.000
41.93129 20.000
41.95172 27.000
41.97215 17.000
41.99258 21.000
42.01301 29.000
42.03344 24.000
42.05387 30.000
42.07430 33.000
42.09472 25.000
42.11515 25.000
42.13558 29.000
42.15601 27.000
42.17644 25.000
42.19687 30.000
42.21730 29.000
42.23773 32.000
42.25816 32.000
42.27859 28.000
42.29902 22.000
42.31945 32.000
42.33988 35.000
42.36031 25.000
42.38074 31.000
42.40117 32.000
42.42160 25.000
42.44202 18.000
42.46245 28.000
42.48288 27.000
42.50331 20.000
42.52374 37.000
42.54417 18.000
42.56460 38.000
42.58503 37.000
42.60546 35.000
42.62589 23.000
42.64632 25.000
42.66675 22.000
42.68718 33.000
42.70761 37.000
42.72804 29.000
42.74847 17.000
42.76890 32.000
42.78933 20.000
42.80975 26.000
42.83018 22.000
42.85061 22.000
42.87104 28.000
42.89147 24.000
42.91190 29.000
42.93233 37.000
42.95276 26.000
42.97319 29.000
42.99362 25.000
43.01405 27.000
43.03448 25.000
43.05491 28.000
43.07534 28.000
43.09577 30.000
43.11620 24.000
43.13663 22.000
43.15705 27.000
43.17748 21.000
43.19791 22.000
43.21834 23.000
43.23877 24.000
43.25920 28.000
43.27963 20.000
43.30006 25.000
43.32049 20.000
43.34092 18.000
43.36135 19.000
43.38178 29.000
43.40221 27.000
43.42264 21.000
43.44307 31.000
43.46350 31.000
43.48393 27.000
43.50435 18.000
43.52478 17.000
43.54521 32.000
43.56564 28.000
43.58607 25.000
43.60650 29.000
43.62693 28.000
43.64736 38.000
43.66779 30.000
43.68822 36.000
43.70865 20.000
43.72908 31.000
43.74951 30.000
43.76994 29.000
43.79037 26.000
43.81080 29.000
43.83123 34.000
43.85166 31.000
43.87208 31.000
43.89251 25.000
43.91294 33.000
43.93337 24.000
43.95380 39.000
43.97423 35.000
43.99466 30.000
44.01509 40.000
44.03552 27.000
44.05595 35.000
44.07638 32.000
44.09681 28.000
44.11724 39.000
44.13767 39.000
44.15810 28.000
44.17853 40.000
44.19896 34.000
44.21938 31.000
44.23981 32.000
44.26024 37.000
44.28067 33.000
44.30110 45.000
44.32153 38.000
44.34196 34.000
44.36239 34.000
44.38282 40.000
44.40325 33.000
44.42368 39.000
44.44411 42.000
44.46454 42.000
44.48497 43.000
44.50540 50.000
44.52583 48.000
44.54626 43.000
44.56669 48.000
44.58711 43.000
44.60754 46.000
44.62797 73.000
44.64840 56.000
44.66883 67.000
44.68926 59.000
44.70969 70.000
44.73012 80.000
44.75055 85.000
44.77098 96.000
44.79141 114.000
44.81184 113.000
44.83227 132.000
44.85270 127.000
44.87313 182.000
44.89356 221.000
44.91399 233.000
44.93441 233.000
44.95484 233.000
44.97527 277.000
44.99570 270.000
45.01613 287.000
45.03656 292.000
45.05699 300.000
45.07742 331.000
45.09785 300.000
45.11828 328.000
45.13871 339.000
45.15914 370.000
45.17957 397.000
45.20000 362.000
45.22043 392.000
45.24086 389.000
45.26129 397.000
45.28171 505.000
45.30214 464.000
45.32257 503.000
45.34300 531.000
45.36343 520.000
45.38386 492.000
45.40429 440.000
45.42472 386.000
45.44515 344.000
45.46558 336.000
45.48601 296.000
45.50644 244.000
45.52687 193.000
45.54730 193.000
45.56773 145.000
45.58816 143.000
45.60859 111.000
45.62902 87.000
45.64944 96.000
45.66987 75.000
45.69030 63.000
45.71073 71.000
45.73116 55.000
45.75159 59.000
45.77202 56.000
45.79245 47.000
45.81288 39.000
45.83331 61.000
45.85374 40.000
45.87417 37.000
45.89460 36.000
45.91503 46.000
45.93546 31.000
45.95589 25.000
45.97632 34.000
45.99674 34.000
46.01717 25.000
46.03760 21.000
46.05803 40.000
46.07846 40.000
46.09889 32.000
46.11932 21.000
46.13975 23.000
46.16018 35.000
46.18061 36.000
46.20104 28.000
46.22147 34.000
46.24190 24.000
46.26233 32.000
46.28276 30.000
46.30319 34.000
46.32362 24.000
46.34404 28.000
46.36447 26.000
46.38490 24.000
46.40533 38.000
46.42576 40.000
46.44619 25.000
46.46662 25.000
46.48705 27.000
46.50748 27.000
46.52791 37.000
46.54834 30.000
46.56877 23.000
46.58920 25.000
46.60963 30.000
46.63006 30.000
46.65049 29.000
46.67092 28.000
46.69135 23.000
46.71177 28.000
46.73220 16.000
46.75263 19.000
46.77306 34.000
46.79349 31.000
46.81392 23.000
46.83435 24.000
46.85478 26.000
46.87521 19.000
46.89564 31.000
46.91607 34.000
46.93650 33.000
46.95693 24.000
46.97736 29.000
46.99779 24.000
47.01822 26.000
47.03865 22.000
47.05907 22.000
47.07950 27.000
47.09993 28.000
47.12036 25.000
47.14079 31.000
47.16122 20.000
47.18165 31.000
47.20208 28.000
47.22251 20.000
47.24294 24.000
47.26337 22.000
47.28380 21.000
47.30423 26.000
47.32466 25.000
47.34509 21.000
47.36552 28.000
47.38595 25.000
47.40637 16.000
47.42680 31.000
47.44723 28.000
47.46766 24.000
47.48809 25.000
47.50852 18.000
47.52895 28.000
47.54938 21.000
47.56981 27.000
47.59024 29.000
47.61067 25.000
47.63110 30.000
47.65153 25.000
47.67196 17.000
47.69239 28.000
47.71282 26.000
47.73325 20.000
47.75368 27.000
47.77410 24.000
47.79453 20.000
47.81496 21.000
47.83539 19.000
47.85582 29.000
47.87625 35.000
47.89668 29.000
47.91711 26.000
47.93754 25.000
47.95797 18.000
47.97840 19.000
47.99883 16.000
48.01926 25.000
48.03969 17.000
48.06012 17.000
48.08055 19.000
48.10098 22.000
48.12140 28.000
48.14183 20.000
48.16226 23.000
48.18269 24.000
48.20312 20.000
48.22355 16.000
48.24398 18.000
48.26441 25.000
48.28484 18.000
48.30527 19.000
48.32570 20.000
48.34613 19.000
48.36656 16.000
48.38699 28.000
48.40742 26.000
48.42785 21.000
48.44828 24.000
48.46870 22.000
48.48913 21.000
48.50956 18.000
48.52999 23.000
48.55042 25.000
48.57085 22.000
48.59128 29.000
48.61171 26.000
48.63214 27.000
48.65257 30.000
48.67300 19.000
48.69343 24.000
48.71386 22.000
48.73429 22.000
48.75472 23.000
48.77515 13.000
48.79558 20.000
48.81601 28.000
48.83643 32.000
48.85686 14.000
48.87729 23.000
48.89772 35.000
48.91815 24.000
48.93858 31.000
48.95901 27.000
48.97944 24.000
48.99987 23.000
49.02030 28.000
49.04073 24.000
49.06116 29.000
49.08159 30.000
49.10202 16.000
49.12245 27.000
49.14288 26.000
49.16331 26.000
49.18373 19.000
49.20416 30.000
49.22459 24.000
49.24502 20.000
49.26545 18.000
49.28588 20.000
49.30631 25.000
49.32674 18.000
49.34717 25.000
49.36760 31.000
49.38803 25.000
49.40846 19.000
49.42889 21.000
49.44932 30.000
49.46975 16.000
49.49018 40.000
49.51061 21.000
49.53104 26.000
49.55146 26.000
49.57189 30.000
49.59232 27.000
49.61275 27.000
49.63318 32.000
49.65361 23.000
49.67404 26.000
49.69447 23.000
49.71490 29.000
49.73533 32.000
49.75576 25.000
49.77619 22.000
49.79662 28.000
49.81705 20.000
49.83748 33.000
49.85791 24.000
49.87834 15.000
49.89876 26.000
49.91919 12.000
49.93962 23.000
49.96005 20.000
49.98048 17.000
50.00091 14.000
50.02134 24.000
50.04177 31.000
50.06220 18.000
50.08263 31.000
50.10306 20.000
50.12349 32.000
50.14392 26.000
50.16435 22.000
50.18478 21.000
50.20521 32.000
50.22564 24.000
50.24606 26.000
50.26649 23.000
50.28692 30.000
50.30735 29.000
50.32778 27.000
50.34821 33.000
50.36864 34.000
50.38907 20.000
50.40950 34.000
50.42993 32.000
50.45036 35.000
50.47079 34.000
50.49122 42.000
50.51165 42.000
50.53208 44.000
50.55251 46.000
50.57294 41.000
50.59337 60.000
50.61379 83.000
50.63422 90.000
50.65465 98.000
50.67508 93.000
50.69551 105.000
50.71594 83.000
50.73637 108.000
50.75680 130.000
50.77723 123.000
50.79766 128.000
50.81809 128.000
50.83852 131.000
50.85895 128.000
50.87938 133.000
50.89981 145.000
50.92024 145.000
50.94067 173.000
50.96109 163.000
50.98152 207.000
51.00195 161.000
51.02238 153.000
51.04281 136.000
51.06324 148.000
51.08367 154.000
51.10410 119.000
51.12453 119.000
51.14496 110.000
51.16539 100.000
51.18582 96.000
51.20625 77.000
51.22668 61.000
51.24711 53.000
51.26754 57.000
51.28797 41.000
51.30839 40.000
51.32882 28.000
51.34925 30.000
51.36968 33.000
51.39011 32.000
51.41054 26.000
51.43097 24.000
51.45140 30.000
51.47183 35.000
51.49226 33.000
51.51269 29.000
51.53312 26.000
51.55355 34.000
51.57398 25.000
51.59441 23.000
51.61484 29.000
51.63527 27.000
51.65570 24.000
51.67612 31.000
51.69655 28.000
51.71698 27.000
51.73741 34.000
51.75784 25.000
51.77827 25.000
51.79870 24.000
51.81913 27.000
51.83956 19.000
51.85999 26.000
51.88042 22.000
51.90085 25.000
51.92128 20.000
51.94171 22.000
51.96214 27.000
51.98257 20.000
52.00300 28.000
52.02342 26.000
52.04385 29.000
52.06428 24.000
52.08471 22.000
52.10514 21.000
52.12557 22.000
52.14600 30.000
52.16643 36.000
52.18686 23.000
52.20729 24.000
52.22772 20.000
52.24815 20.000
52.26858 13.000
52.28901 31.000
52.30944 22.000
52.32987 25.000
52.35030 25.000
52.37072 21.000
52.39115 17.000
52.41158 21.000
52.43201 29.000
52.45244 15.000
52.47287 22.000
52.49330 29.000
52.51373 17.000
52.53416 25.000
52.55459 24.000
52.57502 33.000
52.59545 26.000
52.61588 19.000
52.63631 20.000
52.65674 25.000
52.67717 24.000
52.69760 33.000
52.71803 15.000
52.73845 24.000
52.75888 23.000
52.77931 26.000
52.79974 21.000
52.82017 18.000
52.84060 24.000
52.86103 23.000
52.88146 17.000
52.90189 17.000
52.92232 21.000
52.94275 23.000
52.96318 20.000
52.98361 19.000
53.00404 20.000
53.02447 18.000
53.04490 25.000
53.06533 20.000
53.08575 29.000
53.10618 24.000
53.12661 24.000
53.14704 15.000
53.16747 18.000
53.18790 22.000
53.20833 19.000
53.22876 16.000
53.24919 21.000
53.26962 21.000
53.29005 26.000
53.31048 26.000
53.33091 22.000
53.35134 21.000
53.37177 16.000
53.39220 20.000
53.41263 16.000
53.43305 16.000
53.45348 24.000
53.47391 26.000
53.49434 16.000
53.51477 21.000
53.53520 24.000
53.55563 31.000
53.57606 23.000
53.59649 19.000
53.61692 20.000
53.63735 33.000
53.65778 21.000
53.67821 25.000
53.69864 26.000
53.71907 26.000
53.73950 29.000
53.75993 19.000
53.78036 14.000
53.80078 28.000
53.82121 15.000
53.84164 22.000
53.86207 24.000
53.88250 14.000
53.90293 24.000
53.92336 19.000
53.94379 32.000
53.96422 22.000
53.98465 21.000
54.00508 16.000
54.02551 30.000
54.04594 24.000
54.06637 32.000
54.08680 23.000
54.10723 22.000
54.12766 14.000
54.14808 12.000
54.16851 21.000
54.18894 28.000
54.20937 28.000
54.22980 30.000
54.25023 26.000
54.27066 26.000
54.29109 30.000
54.31152 23.000
54.33195 23.000
54.35238 24.000
54.37281 38.000
54.39324 23.000
54.41367 24.000
54.43410 32.000
54.45453 30.000
54.47496 16.000
54.49538 25.000
54.51581 29.000
54.53624 29.000
54.55667 32.000
54.57710 19.000
54.59753 23.000
54.61796 23.000
54.63839 31.000
54.65882 22.000
54.67925 21.000
54.69968 29.000
54.72011 25.000
54.74054 19.000
54.76097 24.000
54.78140 23.000
54.80183 30.000
54.82226 24.000
54.84269 34.000
54.86311 28.000
54.88354 25.000
54.90397 28.000
54.92440 30.000
54.94483 30.000
54.96526 37.000
54.98569 47.000
55.00612 34.000
55.02655 35.000
55.04698 33.000
55.06741 29.000
55.08784 25.000
55.10827 32.000
55.12870 18.000
55.14913 32.000
55.16956 32.000
55.18999 32.000
55.21041 31.000
55.23084 30.000
55.25127 40.000
55.27170 39.000
55.29213 38.000
55.31256 30.000
55.33299 44.000
55.35342 24.000
55.37385 38.000
55.39428 38.000
55.41471 31.000
55.43514 26.000
55.45557 33.000
55.47600 39.000
55.49643 34.000
55.51686 51.000
55.53729 38.000
55.55772 41.000
55.57814 45.000
55.59857 54.000
55.61900 41.000
55.63943 58.000
55.65986 56.000
55.68029 42.000
55.70072 49.000
55.72115 72.000
55.74158 77.000
55.76201 94.000
55.78244 94.000
55.80287 116.000
55.82330 100.000
55.84373 111.000
55.86416 135.000
55.88459 144.000
55.90502 177.000
55.92544 206.000
55.94587 238.000
55.96630 283.000
55.98673 330.000
56.00716 363.000
56.02759 356.000
56.04802 355.000
56.06845 423.000
56.08888 445.000
56.10931 456.000
56.12974 520.000
56.15017 510.000
56.17060 565.000
56.19103 629.000
56.21146 645.000
56.23189 628.000
56.25232 670.000
56.27274 609.000
56.29317 538.000
56.31360 478.000
56.33403 455.000
56.35446 402.000
56.37489 400.000
56.39532 365.000
56.41575 338.000
56.43618 282.000
56.45661 253.000
56.47704 192.000
56.49747 155.000
56.51790 123.000
56.53833 127.000
56.55876 101.000
56.57919 93.000
56.59962 90.000
56.62005 79.000
56.64047 58.000
56.66090 63.000
56.68133 41.000
56.70176 51.000
56.72219 50.000
56.74262 46.000
56.76305 36.000
56.78348 46.000
56.80391 38.000
56.82434 55.000
56.84477 39.000
56.86520 28.000
56.88563 35.000
56.90606 28.000
56.92649 47.000
56.94692 31.000
56.96735 39.000
56.98777 34.000
57.00820 36.000
57.02863 22.000
57.04906 18.000
57.06949 36.000
57.08992 37.000
57.11035 27.000
57.13078 24.000
57.15121 30.000
57.17164 29.000
57.19207 38.000
57.21250 25.000
57.23293 27.000
57.25336 22.000
57.27379 17.000
57.29422 29.000
57.31465 26.000
57.33507 30.000
57.35550 22.000
57.37593 32.000
57.39636 23.000
57.41679 22.000
57.43722 31.000
57.45765 15.000
57.47808 17.000
57.49851 23.000
57.51894 30.000
57.53937 22.000
57.55980 32.000
57.58023 20.000
57.60066 24.000
57.62109 23.000
57.64152 20.000
57.66195 37.000
57.68238 33.000
57.70280 25.000
57.72323 28.000
57.74366 16.000
57.76409 19.000
57.78452 17.000
57.80495 18.000
57.82538 21.000
57.84581 17.000
57.86624 21.000
57.88667 23.000
57.90710 25.000
57.92753 28.000
57.94796 28.000
57.96839 22.000
57.98882 22.000
58.00925 20.000
58.02968 28.000
58.05010 26.000
58.07053 16.000
58.09096 19.000
58.11139 23.000
58.13182 24.000
58.15225 25.000
58.17268 25.000
58.19311 28.000
58.21354 26.000
58.23397 29.000
58.25440 25.000
58.27483 20.000
58.29526 24.000
58.31569 26.000
58.33612 24.000
58.35655 19.000
58.37698 29.000
58.39740 18.000
58.41783 24.000
58.43826 19.000
58.45869 25.000
58.47912 25.000
58.49955 28.000
58.51998 26.000
58.54041 32.000
58.56084 20.000
58.58127 20.000
58.60170 31.000
58.62213 27.000
58.64256 22.000
58.66299 24.000
58.68342 22.000
58.70385 19.000
58.72428 26.000
58.74471 23.000
58.76513 24.000
58.78556 18.000
58.80599 23.000
58.82642 26.000
58.84685 18.000
58.86728 16.000
58.88771 28.000
58.90814 20.000
58.92857 20.000
58.94900 20.000
58.96943 20.000
58.98986 17.000
59.01029 16.000
59.03072 21.000
59.05115 25.000
59.07158 21.000
59.09201 32.000
59.11243 19.000
59.13286 15.000
59.15329 25.000
59.17372 32.000
59.19415 18.000
59.21458 24.000
59.23501 19.000
59.25544 22.000
59.27587 26.000
59.29630 19.000
59.31673 17.000
59.33716 18.000
59.35759 18.000
59.37802 22.000
59.39845 19.000
59.41888 14.000
59.43931 21.000
59.45973 27.000
59.48016 17.000
59.50059 12.000
59.52102 26.000
59.54145 20.000
59.56188 17.000
59.58231 20.000
59.60274 12.000
59.62317 19.000
59.64360 23.000
59.66403 12.000
59.68446 24.000
59.70489 23.000
59.72532 26.000
59.74575 23.000
59.76618 23.000
59.78661 26.000
59.80704 15.000
59.82746 20.000
59.84789 14.000
59.86832 19.000
59.88875 26.000
59.90918 18.000
59.92961 26.000
59.95004 25.000
59.97047 13.000
59.99090 16.000
60.01133 19.000
60.03176 26.000
60.05219 23.000
60.07262 21.000
60.09305 19.000
60.11348 28.000
60.13391 25.000
60.15434 31.000
60.17476 17.000
60.19519 23.000
60.21562 32.000
60.23605 21.000
60.25648 25.000
60.27691 24.000
60.29734 24.000
60.31777 24.000
60.33820 16.000
60.35863 14.000
60.37906 14.000
60.39949 20.000
60.41992 28.000
60.44035 17.000
60.46078 27.000
60.48121 20.000
60.50164 19.000
60.52207 16.000
60.54249 18.000
60.56292 26.000
60.58335 15.000
60.60378 16.000
60.62421 30.000
60.64464 18.000
60.66507 14.000
60.68550 19.000
60.70593 27.000
60.72636 20.000
60.74679 24.000
60.76722 21.000
60.78765 13.000
60.80808 15.000
60.82851 11.000
60.84894 19.000
60.86937 22.000
60.88979 18.000
60.91022 20.000
60.93065 19.000
60.95108 13.000
60.97151 24.000
60.99194 18.000
61.01237 19.000
61.03280 18.000
61.05323 16.000
61.07366 19.000
61.09409 17.000
61.11452 16.000
61.13495 18.000
61.15538 29.000
61.17581 28.000
61.19624 23.000
61.21667 20.000
61.23709 25.000
61.25752 22.000
61.27795 16.000
61.29838 20.000
61.31881 16.000
61.33924 17.000
61.35967 19.000
61.38010 18.000
61.40053 29.000
61.42096 21.000
61.44139 26.000
61.46182 20.000
61.48225 24.000
61.50268 25.000
61.52311 23.000
61.54354 20.000
61.56397 29.000
61.58440 21.000
61.60482 19.000
61.62525 16.000
61.64568 22.000
61.66611 22.000
61.68654 16.000
61.70697 21.000
61.72740 26.000
61.74783 21.000
61.76826 17.000
61.78869 15.000
61.80912 20.000
61.82955 22.000
61.84998 23.000
61.87041 23.000
61.89084 28.000
61.91127 19.000
61.93170 23.000
61.95212 19.000
61.97255 22.000
61.99298 23.000
62.01341 24.000
62.03384 23.000
62.05427 23.000
62.07470 15.000
62.09513 17.000
62.11556 26.000
62.13599 22.000
62.15642 21.000
62.17685 20.000
62.19728 13.000
62.21771 17.000
62.23814 24.000
62.25857 22.000
62.27900 22.000
62.29942 14.000
62.31985 12.000
62.34028 26.000
62.36071 18.000
62.38114 15.000
62.40157 23.000
62.42200 24.000
62.44243 16.000
62.46286 20.000
62.48329 19.000
62.50372 19.000
62.52415 18.000
62.54458 25.000
62.56501 23.000
62.58544 28.000
62.60587 18.000
62.62630 27.000
62.64673 27.000
62.66715 28.000
62.68758 19.000
62.70801 14.000
62.72844 22.000
62.74887 16.000
62.76930 20.000
62.78973 19.000
62.81016 15.000
62.83059 17.000
62.85102 19.000
62.87145 12.000
62.89188 26.000
62.91231 19.000
62.93274 21.000
62.95317 21.000
62.97360 23.000
62.99403 19.000
63.01445 17.000
63.03488 16.000
63.05531 18.000
63.07574 21.000
63.09617 21.000
63.11660 33.000
63.13703 24.000
63.15746 26.000
63.17789 17.000
63.19832 21.000
63.21875 21.000
63.23918 24.000
63.25961 19.000
63.28004 24.000
63.30047 24.000
63.32090 17.000
63.34133 19.000
63.36175 25.000
63.38218 20.000
63.40261 17.000
63.42304 23.000
63.44347 13.000
63.46390 22.000
63.48433 20.000
63.50476 21.000
63.52519 22.000
63.54562 30.000
63.56605 26.000
63.58648 26.000
63.60691 30.000
63.62734 24.000
63.64777 21.000
63.66820 13.000
63.68863 19.000
63.70906 24.000
63.72948 20.000
63.74991 29.000
63.77034 16.000
63.79077 17.000
63.81120 22.000
63.83163 20.000
63.85206 17.000
63.87249 22.000
63.89292 25.000
63.91335 14.000
63.93378 16.000
63.95421 27.000
63.97464 22.000
63.99507 25.000
64.01550 25.000
64.03593 30.000
64.05636 26.000
64.07678 13.000
64.09721 17.000
64.11764 26.000
64.13807 18.000
64.15850 16.000
64.17893 18.000
64.19936 23.000
64.21979 17.000
64.24022 12.000
64.26065 18.000
64.28108 20.000
64.30151 20.000
64.32194 15.000
64.34237 24.000
64.36280 22.000
64.38323 24.000
64.40366 17.000
64.42408 16.000
64.44451 24.000
64.46494 29.000
64.48537 31.000
64.50580 15.000
64.52623 27.000
64.54666 32.000
64.56709 15.000
64.58752 25.000
64.60795 21.000
64.62838 32.000
64.64881 24.000
64.66924 28.000
64.68967 14.000
64.71010 17.000
64.73053 28.000
64.75096 19.000
64.77139 28.000
64.79181 22.000
64.81224 25.000
64.83267 18.000
64.85310 21.000
64.87353 21.000
64.89396 28.000
64.91439 19.000
64.93482 30.000
64.95525 30.000
64.97568 26.000
64.99611 27.000
65.01654 23.000
65.03697 35.000
65.05740 34.000
65.07783 35.000
65.09826 33.000
65.11869 25.000
65.13911 36.000
65.15954 38.000
65.17997 17.000
65.20040 31.000
65.22083 31.000
65.24126 37.000
65.26169 33.000
65.28212 46.000
65.30255 38.000
65.32298 39.000
65.34341 47.000
65.36384 39.000
65.38427 48.000
65.40470 37.000
65.42513 51.000
65.44556 52.000
65.46599 54.000
65.48641 65.000
65.50684 57.000
65.52727 71.000
65.54770 93.000
65.56813 90.000
65.58856 105.000
65.60899 112.000
65.62942 148.000
65.64985 150.000
65.67028 174.000
65.69071 221.000
65.71114 237.000
65.73157 262.000
65.75200 239.000
65.77243 265.000
65.79286 275.000
65.81329 262.000
65.83372 295.000
65.85414 264.000
65.87457 262.000
65.89500 258.000
65.91543 272.000
65.93586 265.000
65.95629 233.000
65.97672 234.000
65.99715 244.000
66.01758 204.000
66.03801 200.000
66.05844 179.000
66.07887 202.000
66.09930 181.000
66.11973 143.000
66.14016 143.000
66.16059 136.000
66.18102 101.000
66.20144 115.000
66.22187 108.000
66.24230 93.000
66.26273 89.000
66.28316 92.000
66.30359 58.000
66.32402 62.000
66.34445 55.000
66.36488 55.000
66.38531 42.000
66.40574 36.000
66.42617 42.000
66.44660 44.000
66.46703 43.000
66.48746 30.000
66.50789 22.000
66.52832 48.000
66.54875 28.000
66.56917 30.000
66.58960 31.000
66.61003 34.000
66.63046 36.000
66.65089 29.000
66.67132 30.000
66.69175 28.000
66.71218 22.000
66.73261 23.000
66.75304 30.000
66.77347 20.000
66.79390 24.000
66.81433 26.000
66.83476 24.000
66.85519 17.000
66.87562 26.000
66.89605 36.000
66.91647 30.000
66.93690 17.000
66.95733 25.000
66.97776 23.000
66.99819 15.000
67.01862 24.000
67.03905 21.000
67.05948 26.000
67.07991 25.000
67.10034 25.000
67.12077 24.000
67.14120 19.000
67.16163 23.000
67.18206 20.000
67.20249 17.000
67.22292 28.000
67.24335 17.000
67.26377 28.000
67.28420 20.000
67.30463 28.000
67.32506 13.000
67.34549 26.000
67.36592 26.000
67.38635 22.000
67.40678 25.000
67.42721 13.000
67.44764 23.000
67.46807 19.000
67.48850 24.000
67.50893 16.000
67.52936 25.000
67.54979 26.000
67.57022 28.000
67.59065 14.000
67.61108 19.000
67.63150 26.000
67.65193 14.000
67.67236 19.000
67.69279 13.000
67.71322 18.000
67.73365 19.000
67.75408 24.000
67.77451 19.000
67.79494 27.000
67.81537 22.000
67.83580 15.000
67.85623 14.000
67.87666 26.000
67.89709 16.000
67.91752 24.000
67.93795 19.000
67.95838 28.000
67.97880 17.000
67.99923 29.000
68.01966 26.000
68.04009 19.000
68.06052 28.000
68.08095 21.000
68.10138 25.000
68.12181 24.000
68.14224 23.000
68.16267 30.000
68.18310 24.000
68.20353 28.000
68.22396 30.000
68.24439 17.000
68.26482 24.000
68.28525 21.000
68.30568 12.000
68.32610 21.000
68.34653 18.000
68.36696 20.000
68.38739 22.000
68.40782 21.000
68.42825 23.000
68.44868 23.000
68.46911 28.000
68.48954 20.000
68.50997 25.000
68.53040 21.000
68.55083 19.000
68.57126 28.000
68.59169 22.000
68.61212 21.000
68.63255 22.000
68.65298 31.000
68.67341 19.000
68.69383 11.000
68.71426 32.000
68.73469 10.000
68.75512 23.000
68.77555 21.000
68.79598 18.000
68.81641 12.000
68.83684 20.000
68.85727 17.000
68.87770 23.000
68.89813 26.000
68.91856 26.000
68.93899 18.000
68.95942 14.000
68.97985 20.000
69.00028 36.000
69.02071 23.000
69.04113 19.000
69.06156 14.000
69.08199 22.000
69.10242 21.000
69.12285 23.000
69.14328 25.000
69.16371 16.000
69.18414 20.000
69.20457 15.000
69.22500 23.000
69.24543 18.000
69.26586 22.000
69.28629 18.000
69.30672 11.000
69.32715 20.000
69.34758 20.000
69.36801 24.000
69.38843 23.000
69.40886 22.000
69.42929 28.000
69.44972 16.000
69.47015 21.000
69.49058 20.000
69.51101 31.000
69.53144 18.000
69.55187 21.000
69.57230 26.000
69.59273 18.000
69.61316 21.000
69.63359 18.000
69.65402 29.000
69.67445 17.000
69.69488 20.000
69.71531 23.000
69.73574 32.000
69.75616 35.000
69.77659 32.000
69.79702 22.000
69.81745 24.000
69.83788 30.000
69.85831 26.000
69.87874 20.000
69.89917 24.000
69.91960 24.000
69.94003 26.000
69.96046 32.000
69.98089 38.000
70.00132 26.000
70.02175 28.000
70.04218 25.000
70.06261 29.000
70.08304 18.000
70.10346 36.000
70.12389 45.000
70.14432 34.000
70.16475 46.000
70.18518 47.000
70.20561 51.000
70.22604 49.000
70.24647 66.000
70.26690 64.000
70.28733 73.000
70.30776 69.000
70.32819 79.000
70.34862 87.000
70.36905 81.000
70.38948 82.000
70.40991 78.000
70.43034 83.000
70.45076 64.000
70.47119 74.000
70.49162 86.000
70.51205 71.000
70.53248 66.000
70.55291 75.000
70.57334 67.000
70.59377 77.000
70.61420 57.000
70.63463 64.000
70.65506 59.000
70.67549 51.000
70.69592 60.000
70.71635 48.000
70.73678 43.000
70.75721 48.000
70.77764 38.000
70.79807 40.000
70.81849 41.000
70.83892 39.000
70.85935 37.000
70.87978 28.000
70.90021 27.000
70.92064 25.000
70.94107 26.000
70.96150 25.000
70.98193 34.000
71.00236 28.000
71.02279 26.000
71.04322 34.000
71.06365 27.000
71.08408 23.000
71.10451 20.000
71.12494 34.000
71.14537 13.000
71.16579 29.000
71.18622 24.000
71.20665 20.000
71.22708 18.000
71.24751 23.000
71.26794 21.000
71.28837 20.000
71.30880 18.000
71.32923 19.000
71.34966 18.000
71.37009 23.000
71.39052 19.000
71.41095 16.000
71.43138 16.000
71.45181 18.000
71.47224 17.000
71.49267 18.000
71.51310 21.000
71.53352 25.000
71.55395 22.000
71.57438 23.000
71.59481 27.000
71.61524 13.000
71.63567 15.000
71.65610 21.000
71.67653 22.000
71.69696 27.000
71.71739 24.000
71.73782 22.000
71.75825 26.000
71.77868 20.000
71.79911 17.000
71.81954 16.000
71.83997 18.000
71.86040 21.000
71.88082 19.000
71.90125 18.000
71.92168 20.000
71.94211 14.000
71.96254 23.000
71.98297 27.000
72.00340 17.000
72.02383 15.000
72.04426 25.000
72.06469 22.000
72.08512 26.000
72.10555 20.000
72.12598 22.000
72.14641 29.000
72.16684 27.000
72.18727 25.000
72.20770 14.000
72.22812 26.000
72.24855 17.000
72.26898 22.000
72.28941 20.000
72.30984 18.000
72.33027 18.000
72.35070 29.000
72.37113 21.000
72.39156 15.000
72.41199 19.000
72.43242 20.000
72.45285 18.000
72.47328 20.000
72.49371 25.000
72.51414 22.000
72.53457 29.000
72.55500 27.000
72.57543 19.000
72.59585 20.000
72.61628 19.000
72.63671 17.000
72.65714 30.000
72.67757 24.000
72.69800 13.000
72.71843 19.000
72.73886 14.000
72.75929 37.000
72.77972 17.000
72.80015 31.000
72.82058 30.000
72.84101 22.000
72.86144 17.000
72.88187 24.000
72.90230 20.000
72.92273 15.000
72.94315 27.000
72.96358 22.000
72.98401 16.000
73.00444 31.000
73.02487 19.000
73.04530 16.000
73.06573 26.000
73.08616 28.000
73.10659 19.000
73.12702 27.000
73.14745 22.000
73.16788 34.000
73.18831 19.000
73.20874 32.000
73.22917 18.000
73.24960 35.000
73.27003 27.000
73.29045 23.000
73.31088 30.000
73.33131 24.000
73.35174 25.000
73.37217 28.000
73.39260 21.000
73.41303 18.000
73.43346 25.000
73.45389 28.000
73.47432 19.000
73.49475 16.000
73.51518 20.000
73.53561 26.000
73.55604 25.000
73.57647 14.000
73.59690 17.000
73.61733 28.000
73.63776 24.000
73.65818 27.000
73.67861 24.000
73.69904 28.000
73.71947 24.000
73.73990 36.000
73.76033 23.000
73.78076 18.000
73.80119 22.000
73.82162 31.000
73.84205 26.000
73.86248 21.000
73.88291 37.000
73.90334 26.000
73.92377 31.000
73.94420 29.000
73.96463 30.000
73.98506 18.000
74.00548 37.000
74.02591 38.000
74.04634 41.000
74.06677 35.000
74.08720 38.000
74.10763 39.000
74.12806 32.000
74.14849 35.000
74.16892 23.000
74.18935 33.000
74.20978 39.000
74.23021 43.000
74.25064 45.000
74.27107 51.000
74.29150 56.000
74.31193 70.000
74.33236 52.000
74.35278 77.000
74.37321 67.000
74.39364 68.000
74.41407 83.000
74.43450 80.000
74.45493 96.000
74.47536 87.000
74.49579 91.000
74.51622 94.000
74.53665 83.000
74.55708 87.000
74.57751 94.000
74.59794 103.000
74.61837 110.000
74.63880 115.000
74.65923 95.000
74.67966 104.000
74.70009 107.000
74.72051 110.000
74.74094 91.000
74.76137 118.000
74.78180 106.000
74.80223 114.000
74.82266 111.000
74.84309 118.000
74.86352 116.000
74.88395 130.000
74.90438 106.000
74.92481 119.000
74.94524 112.000
74.96567 142.000
74.98610 153.000
75.00653 160.000
75.02696 163.000
75.04739 159.000
75.06781 161.000
75.08824 163.000
75.10867 144.000
75.12910 141.000
75.14953 143.000
75.16996 124.000
75.19039 112.000
75.21082 125.000
75.23125 129.000
75.25168 100.000
75.27211 105.000
75.29254 107.000
75.31297 108.000
75.33340 83.000
75.35383 84.000
75.37426 85.000
75.39469 74.000
75.41511 62.000
75.43554 59.000
75.45597 58.000
75.47640 59.000
75.49683 48.000
75.51726 41.000
75.53769 34.000
75.55812 42.000
75.57855 49.000
75.59898 23.000
75.61941 30.000
75.63984 26.000
75.66027 32.000
75.68070 30.000
75.70113 25.000
75.72156 27.000
75.74199 35.000
75.76242 32.000
75.78284 23.000
75.80327 30.000
75.82370 21.000
75.84413 29.000
75.86456 19.000
75.88499 23.000
75.90542 28.000
75.92585 22.000
75.94628 27.000
75.96671 21.000
75.98714 18.000
76.00757 21.000
76.02800 18.000
76.04843 30.000
76.06886 29.000
76.08929 26.000
76.10972 27.000
76.13014 27.000
76.15057 15.000
76.17100 20.000
76.19143 25.000
76.21186 21.000
76.23229 19.000
76.25272 18.000
76.27315 35.000
76.29358 22.000
76.31401 15.000
76.33444 25.000
76.35487 20.000
76.37530 22.000
76.39573 31.000
76.41616 28.000
76.43659 34.000
76.45702 30.000
76.47744 18.000
76.49787 18.000
76.51830 26.000
76.53873 17.000
76.55916 15.000
76.57959 24.000
76.60002 22.000
76.62045 26.000
76.64088 24.000
76.66131 24.000
76.68174 27.000
76.70217 23.000
76.72260 26.000
76.74303 20.000
76.76346 20.000
76.78389 15.000
76.80432 25.000
76.82475 14.000
76.84517 24.000
76.86560 16.000
76.88603 16.000
76.90646 25.000
76.92689 24.000
76.94732 28.000
76.96775 20.000
76.98818 17.000
77.00861 22.000
77.02904 21.000
77.04947 21.000
77.06990 22.000
77.09033 21.000
77.11076 23.000
77.13119 22.000
77.15162 19.000
77.17205 22.000
77.19247 18.000
77.21290 23.000
77.23333 15.000
77.25376 27.000
77.27419 17.000
77.29462 22.000
77.31505 27.000
77.33548 22.000
77.35591 23.000
77.37634 14.000
77.39677 26.000
77.41720 21.000
77.43763 22.000
77.45806 22.000
77.47849 25.000
77.49892 19.000
77.51935 17.000
77.53978 27.000
77.56020 25.000
77.58063 18.000
77.60106 16.000
77.62149 21.000
77.64192 25.000
77.66235 12.000
77.68278 17.000
77.70321 26.000
77.72364 21.000
77.74407 26.000
77.76450 19.000
77.78493 19.000
77.80536 14.000
77.82579 25.000
77.84622 23.000
77.86665 16.000
77.88708 20.000
77.90750 19.000
77.92793 27.000
77.94836 17.000
77.96879 27.000
77.98922 22.000
78.00965 26.000
78.03008 26.000
78.05051 22.000
78.07094 25.000
78.09137 24.000
78.11180 17.000
78.13223 26.000
78.15266 20.000
78.17309 26.000
78.19352 19.000
78.21395 19.000
78.23438 21.000
78.25480 33.000
78.27523 25.000
78.29566 17.000
78.31609 30.000
78.33652 24.000
78.35695 27.000
78.37738 23.000
78.39781 25.000
78.41824 27.000
78.43867 28.000
78.45910 28.000
78.47953 32.000
78.49996 31.000
78.52039 23.000
78.54082 20.000
78.56125 26.000
78.58168 25.000
78.60211 28.000
78.62253 35.000
78.64296 30.000
78.66339 43.000
78.68382 36.000
78.70425 38.000
78.72468 43.000
78.74511 42.000
78.76554 49.000
78.78597 42.000
78.80640 59.000
78.82683 58.000
78.84726 48.000
78.86769 61.000
78.88812 61.000
78.90855 64.000
78.92898 54.000
78.94941 67.000
78.96983 73.000
78.99026 67.000
79.01069 69.000
79.03112 57.000
79.05155 57.000
79.07198 77.000
79.09241 65.000
79.11284 69.000
79.13327 74.000
79.15370 70.000
79.17413 72.000
79.19456 67.000
79.21499 60.000
79.23542 71.000
79.25585 72.000
79.27628 77.000
79.29671 83.000
79.31713 82.000
79.33756 78.000
79.35799 104.000
79.37842 78.000
79.39885 90.000
79.41928 104.000
79.43971 93.000
79.46014 89.000
79.48057 77.000
79.50100 65.000
79.52143 73.000
79.54186 58.000
79.56229 62.000
79.58272 65.000
79.60315 61.000
79.62358 52.000
79.64401 71.000
79.66444 61.000
79.68486 65.000
79.70529 46.000
79.72572 43.000
79.74615 49.000
79.76658 31.000
79.78701 52.000
79.80744 36.000
79.82787 28.000
79.84830 30.000
79.86873 22.000
79.88916 26.000
79.90959 29.000
79.93002 24.000
79.95045 30.000
79.97088 24.000
79.99131 22.000
